"Time [s]"	[A*]	[B*]	PADP
0	0	0	2.06e-009
9	0.00105	9.62e-033	2.06e-009
18	0.00322	1.13e-032	2.06e-009
27	0.00589	1.75e-032	2.06e-009
36	0.00891	2.31e-032	2.06e-009
45	0.0126	2.44e-032	2.06e-009
54	0.0168	3.4e-032	2.06e-009
63.1	0.0219	4.07e-032	2.06e-009
72.1	0.0272	5.09e-032	2.06e-009
81.1	0.0334	6.64e-032	2.06e-009
90.1	0.0407	8.99e-032	2.06e-009
99.1	0.0488	1.07e-031	2.06e-009
108	0.0576	1.36e-031	2.06e-009
117	0.0672	1.78e-031	2.06e-009
126	0.0774	2.11e-031	2.06e-009
135	0.0881	2.77e-031	2.06e-009
144	0.0994	3.62e-031	2.06e-009
153	0.111	4.37e-031	2.06e-009
162	0.122	4.35e-031	2.06e-009
171	0.133	6.27e-031	2.06e-009
180	0.145	9.13e-031	2.06e-009
189	0.158	1.57e-030	2.06e-009
198	0.172	2.31e-030	2.06e-009
207	0.188	3.43e-030	2.06e-009
216	0.204	4.7e-030	2.06e-009
225	0.221	5.98e-030	2.06e-009
234	0.237	8.09e-030	2.06e-009
243	0.253	1.25e-029	2.06e-009
252	0.269	1.64e-029	2.06e-009
261	0.285	2.42e-029	2.06e-009
270	0.302	3.83e-029	2.06e-009
279	0.318	5.11e-029	2.06e-009
288	0.334	7.94e-029	2.06e-009
297	0.35	9.17e-029	2.06e-009
306	0.364	9.12e-029	2.06e-009
315	0.377	9.08e-029	2.06e-009
324	0.389	1.76e-028	2.06e-009
333	0.401	2.82e-028	2.06e-009
342	0.414	5.32e-028	2.06e-009
351	0.427	7.98e-028	2.06e-009
360	0.44	1.1e-027	2.06e-009
369	0.454	2.17e-027	2.06e-009
378	0.469	2.85e-027	2.06e-009
387	0.484	4.73e-027	2.06e-009
396	0.5	6.81e-027	2.06e-009
405	0.516	8.78e-027	2.06e-009
414	0.532	1.23e-026	2.06e-009
423	0.547	1.92e-026	2.06e-009
432	0.564	3.04e-026	2.06e-009
441	0.581	5.33e-026	2.06e-009
450	0.6	9.22e-026	2.06e-009
459	0.62	1.32e-025	2.06e-009
468	0.639	1.65e-025	2.06e-009
477	0.657	2.31e-025	2.06e-009
486	0.674	2.3e-025	2.06e-009
495	0.69	3.55e-025	2.06e-009
504	0.705	5.78e-025	2.06e-009
514	0.72	8.91e-025	2.06e-009
523	0.735	1.65e-024	2.06e-009
532	0.751	2.46e-024	2.06e-009
541	0.766	3.54e-024	2.06e-009
550	0.781	5.9e-024	2.06e-009
559	0.796	9.54e-024	2.06e-009
568	0.813	1.77e-023	2.06e-009
577	0.83	2.56e-023	2.06e-009
586	0.847	3.29e-023	2.06e-009
595	0.863	3.75e-023	2.06e-009
604	0.878	6.5e-023	2.06e-009
613	0.895	1.08e-022	2.06e-009
622	0.911	1.07e-022	2.06e-009
631	0.925	1.07e-022	2.06e-009
640	0.938	1.77e-022	2.06e-009
649	0.951	4.38e-022	2.06e-009
658	0.967	8.27e-022	2.06e-009
667	0.983	1.16e-021	2.06e-009
676	1	1.44e-021	2.06e-009
685	1.01	1.44e-021	2.06e-009
694	1.03	2.19e-021	2.06e-009
703	1.04	3.86e-021	2.06e-009
712	1.06	6.86e-021	2.06e-009
721	1.07	9.33e-021	2.06e-009
730	1.09	1.14e-020	2.06e-009
739	1.1	1.9e-020	2.06e-009
748	1.12	3.61e-020	2.06e-009
757	1.14	6.18e-020	2.06e-009
766	1.15	8.91e-020	2.06e-009
775	1.17	1.1e-019	2.06e-009
784	1.19	1.55e-019	2.06e-009
793	1.21	3.04e-019	2.06e-009
802	1.22	4.46e-019	2.06e-009
811	1.24	6.45e-019	2.06e-009
820	1.26	8.5e-019	2.06e-009
829	1.28	1.38e-018	2.06e-009
838	1.29	2.06e-018	2.06e-009
847	1.31	2.84e-018	2.06e-009
856	1.33	5.99e-018	2.06e-009
865	1.34	8.24e-018	2.06e-009
874	1.36	1.14e-017	2.06e-009
883	1.38	1.86e-017	2.06e-009
892	1.4	2.59e-017	2.06e-009
901	1.41	3.8e-017	2.06e-009
910	1.43	6.29e-017	2.06e-009
919	1.44	1.05e-016	2.06e-009
928	1.46	1.86e-016	2.06e-009
937	1.48	2.76e-016	2.06e-009
946	1.5	4.95e-016	2.06e-009
955	1.52	8.48e-016	2.06e-009
964	1.54	1.18e-015	2.06e-009
973	1.56	1.51e-015	2.06e-009
982	1.58	2.39e-015	2.06e-009
991	1.59	4.81e-015	2.06e-009
1000	1.61	8.76e-015	2.06e-009
1010	1.63	1.28e-014	2.06e-009
1020	1.65	1.81e-014	2.06e-009
1030	1.67	2.52e-014	2.06e-009
1040	1.69	4.32e-014	2.06e-009
1050	1.71	6.35e-014	2.06e-009
1050	1.73	9.5e-014	2.06e-009
1060	1.75	1.66e-013	2.06e-009
1070	1.76	2.81e-013	2.06e-009
1080	1.78	4.02e-013	2.06e-009
1090	1.8	5.71e-013	2.06e-009
1100	1.81	7.98e-013	2.06e-009
1110	1.83	1.27e-012	2.06e-009
1120	1.85	2.06e-012	2.06e-009
1130	1.86	2.79e-012	2.06e-009
1140	1.88	5.55e-012	2.06e-009
1140	1.89	9.44e-012	2.06e-009
1150	1.91	1.18e-011	2.06e-009
1160	1.93	1.46e-011	2.06e-009
1170	1.94	2.2e-011	2.06e-009
1180	1.96	3.01e-011	2.06e-009
1190	1.97	4.95e-011	2.06e-009
1200	1.99	7.04e-011	2.06e-009
1210	2	9.76e-011	2.06e-009
1220	2.01	1.56e-010	2.06e-009
1230	2.03	2.12e-010	2.06e-009
1230	2.04	3e-010	2.06e-009
1240	2.06	4.72e-010	2.06e-009
1250	2.07	7.27e-010	2.06e-009
1260	2.09	1.06e-009	2.06e-009
1270	2.1	1.57e-009	2.06e-009
1280	2.12	2.35e-009	2.06e-009
1290	2.13	3.29e-009	2.06e-009
1300	2.15	3.69e-009	2.06e-009
1310	2.16	5.01e-009	2.06e-009
1320	2.17	7.99e-009	2.06e-009
1320	2.19	1.27e-008	2.06e-009
1330	2.2	2.3e-008	2.06e-009
1340	2.22	2.79e-008	2.06e-009
1350	2.23	2.78e-008	2.06e-009
1360	2.24	2.9e-008	2.06e-009
1370	2.26	5.5e-008	2.06e-009
1380	2.27	7.96e-008	2.06e-009
1390	2.28	1.13e-007	2.06e-009
1400	2.29	1.77e-007	2.06e-009
1410	2.31	2.8e-007	2.06e-009
1410	2.32	3.73e-007	2.06e-009
1420	2.33	5.42e-007	2.06e-009
1430	2.35	6.81e-007	2.06e-009
1440	2.36	7.71e-007	2.06e-009
1450	2.37	0.00000118	2.06e-009
1460	2.38	0.00000152	2.06e-009
1470	2.39	0.00000273	2.06e-009
1480	2.41	0.00000298	2.06e-009
1490	2.42	0.00000385	2.06e-009
1500	2.43	0.0000058	2.06e-009
1500	2.44	0.000008	2.06e-009
1510	2.45	0.00000809	2.06e-009
1520	2.47	0.000013	2.06e-009
1530	2.48	0.0000213	2.06e-009
1540	2.49	0.0000263	2.06e-009
1550	2.5	0.0000328	2.06e-009
1560	2.51	0.0000338	2.06e-009
1570	2.52	0.0000337	2.06e-009
1580	2.53	0.000049	2.06e-009
1590	2.54	0.000068	2.06e-009
1590	2.55	0.0000992	2.06e-009
1600	2.56	0.000146	2.06e-009
1610	2.57	0.000145	2.06e-009
1620	2.57	0.000212	2.06e-009
1630	2.58	0.000237	2.06e-009
1640	2.59	0.000306	2.06e-009
1650	2.6	0.00044	2.07e-009
1660	2.61	0.000694	2.07e-009
1670	2.62	0.000827	2.07e-009
1680	2.63	0.00113	2.07e-009
1680	2.64	0.00118	2.07e-009
1690	2.65	0.0015	2.08e-009
1700	2.66	0.00214	2.08e-009
1710	2.67	0.00272	2.09e-009
1720	2.68	0.00286	2.09e-009
1730	2.69	0.00419	2.1e-009
1740	2.7	0.00526	2.12e-009
1750	2.71	0.00691	2.13e-009
1760	2.72	0.00788	2.14e-009
1770	2.73	0.00785	2.06e-009
1770	2.74	0.0114	2.06e-009
1780	2.74	0.0163	2.06e-009
1790	2.75	0.02	2.06e-009
1800	2.76	0.02	2.06e-009
1810	2.77	0.0259	2.06e-009
1820	2.78	0.0327	2.06e-009
1830	2.78	0.0406	2.06e-009
1840	2.79	0.0404	2.06e-009
1850	2.8	0.0402	2.06e-009
1860	2.8	0.0401	2.06e-009
1860	2.81	0.0556	2.06e-009
1870	2.81	0.0753	2.06e-009
1880	2.82	0.109	2.06e-009
1890	2.82	0.135	2.06e-009
1900	2.83	0.142	2.06e-009
1910	2.84	0.194	2.06e-009
1920	2.84	0.231	2.06e-009
1930	2.85	0.289	2.06e-009
1940	2.86	0.318	2.06e-009
1950	2.86	0.378	2.06e-009
1950	2.87	0.484	2.06e-009
1960	2.88	0.614	2.06e-009
1970	2.89	0.611	2.06e-009
1980	2.89	0.807	2.06e-009
1990	2.9	1.01	2.06e-009
2000	2.91	1.01	2.06e-009
2010	2.92	1.2	2.06e-009
2020	2.92	1.45	2.06e-009
2030	2.93	1.76	2.06e-009
2040	2.94	2.3	2.06e-009
2050	2.94	2.36	2.06e-009
2050	2.95	2.88	2.06e-009
2060	2.96	3.7	2.06e-009
2070	2.96	3.75	2.06e-009
2080	2.97	4.49	2.06e-009
2090	2.97	5.43	2.06e-009
2100	2.98	5.97	2.06e-009
2110	2.98	6.19	2.06e-009
2120	2.98	6.48	2.06e-009
2130	2.98	6.99	2.06e-009
2140	2.98	7.71	2.06e-009
2140	2.98	8.3	2.06e-009
2150	2.98	8.27	2.06e-009
2160	2.98	8.86	2.06e-009
2170	2.98	8.95	2.06e-009
2180	2.98	9.23	2.06e-009
2190	2.98	9.2	2.06e-009
2200	2.97	9.16	2.06e-009
2210	2.97	9.45	2.06e-009
2220	2.97	9.82	2.06e-009
2230	2.97	10	2.06e-009
2230	2.96	10.2	2.06e-009
2240	2.96	10.3	2.06e-009
2250	2.96	10.4	2.06e-009
2260	2.95	10.6	2.06e-009
2270	2.95	10.7	2.06e-009
2280	2.95	10.8	2.06e-009
2290	2.94	10.9	2.06e-009
2300	2.94	11	2.06e-009
2310	2.93	11	2.06e-009
2320	2.93	11.1	2.06e-009
2320	2.93	11.1	2.06e-009
2330	2.92	11.2	2.06e-009
2340	2.92	11.2	2.06e-009
2350	2.91	11.2	2.06e-009
2360	2.91	11.2	2.06e-009
2370	2.9	11.2	2.06e-009
2380	2.9	11.3	2.06e-009
2390	2.89	11.2	2.06e-009
2400	2.89	11.2	2.06e-009
2410	2.89	11.2	2.06e-009
2410	2.88	11.2	2.06e-009
2420	2.88	11.2	2.06e-009
2430	2.87	11.2	2.06e-009
2440	2.87	11.2	2.06e-009
2450	2.86	11.1	2.06e-009
2460	2.86	11.1	2.06e-009
2470	2.85	11.1	2.06e-009
2480	2.85	11	2.06e-009
2490	2.84	11	2.06e-009
2500	2.84	11	2.06e-009
2500	2.84	10.9	2.06e-009
2510	2.83	10.9	2.06e-009
2520	2.83	10.9	2.06e-009
2530	2.82	10.8	2.06e-009
2540	2.82	10.8	2.06e-009
2550	2.81	10.7	2.06e-009
2560	2.81	10.7	2.06e-009
2570	2.8	10.7	2.06e-009
2580	2.8	10.6	2.06e-009
2590	2.79	10.6	2.06e-009
2590	2.79	10.6	2.06e-009
2600	2.78	10.5	2.06e-009
2610	2.78	10.5	2.06e-009
2620	2.78	10.4	2.06e-009
2630	2.77	10.4	2.06e-009
2640	2.77	10.4	2.06e-009
2650	2.76	10.3	2.06e-009
2660	2.76	10.3	2.06e-009
2670	2.75	10.3	2.06e-009
2680	2.75	10.2	2.06e-009
2680	2.74	10.2	2.06e-009
2690	2.74	10.2	2.06e-009
2700	2.73	10.1	2.06e-009
2710	2.73	10.1	2.06e-009
2720	2.72	10	2.06e-009
2730	2.72	10	2.06e-009
2740	2.72	9.97	2.06e-009
2750	2.71	9.94	2.06e-009
2760	2.71	9.9	2.06e-009
2770	2.7	9.87	2.06e-009
2770	2.7	9.83	2.06e-009
2780	2.69	9.8	2.06e-009
2790	2.69	9.76	2.06e-009
2800	2.68	9.73	2.06e-009
2810	2.68	9.69	2.06e-009
2820	2.68	9.66	2.06e-009
2830	2.67	9.63	2.06e-009
2840	2.67	9.59	2.06e-009
2850	2.66	9.56	2.06e-009
2860	2.66	9.53	2.06e-009
2860	2.65	9.49	2.06e-009
2870	2.65	9.46	2.06e-009
2880	2.64	9.43	2.06e-009
2890	2.64	9.4	2.06e-009
2900	2.64	9.37	2.06e-009
2910	2.63	9.34	2.06e-009
2920	2.63	9.31	2.06e-009
2930	2.62	9.28	2.06e-009
2940	2.62	9.25	2.06e-009
2950	2.61	9.22	2.06e-009
2950	2.61	9.19	2.06e-009
2960	2.61	9.16	2.06e-009
2970	2.6	9.13	2.06e-009
2980	2.6	9.1	2.06e-009
2990	2.59	9.07	2.06e-009
3000	2.59	9.04	2.06e-009
3010	2.58	9.01	2.06e-009
3020	2.58	8.98	2.06e-009
3030	2.57	8.95	2.06e-009
3040	2.57	8.93	2.06e-009
3050	2.57	8.9	2.06e-009
3050	2.56	8.87	2.06e-009
3060	2.56	8.84	2.06e-009
3070	2.55	8.82	2.06e-009
3080	2.55	8.79	2.06e-009
3090	2.55	8.76	2.06e-009
3100	2.54	8.74	2.06e-009
3110	2.54	8.71	2.06e-009
3120	2.53	8.68	2.06e-009
3130	2.53	8.66	2.06e-009
3140	2.52	8.63	2.06e-009
3140	2.52	8.61	2.06e-009
3150	2.52	8.58	2.06e-009
3160	2.51	8.56	2.06e-009
3170	2.51	8.53	2.06e-009
3180	2.5	8.51	2.06e-009
3190	2.5	8.48	2.06e-009
3200	2.49	8.46	2.06e-009
3210	2.49	8.43	2.06e-009
3220	2.49	8.41	2.06e-009
3230	2.48	8.38	2.06e-009
3230	2.48	8.36	2.06e-009
3240	2.47	8.34	2.06e-009
3250	2.47	8.31	2.07e-009
3260	2.47	8.29	2.07e-009
3270	2.46	8.27	2.07e-009
3280	2.46	8.24	2.07e-009
3290	2.45	8.22	2.07e-009
3300	2.45	8.2	2.08e-009
3310	2.45	8.18	2.08e-009
3320	2.44	8.15	2.09e-009
3320	2.44	8.13	2.09e-009
3330	2.43	8.11	2.1e-009
3340	2.43	8.09	2.12e-009
3350	2.42	8.07	2.13e-009
3360	2.42	8.05	2.14e-009
3370	2.42	8.03	2.14e-009
3380	2.41	8	2.18e-009
3390	2.41	7.98	2.24e-009
3400	2.4	7.96	2.28e-009
3410	2.4	7.94	2.28e-009
3410	2.4	7.92	2.35e-009
3420	2.39	7.9	2.43e-009
3430	2.39	7.88	2.53e-009
3440	2.38	7.86	2.52e-009
3450	2.38	7.84	2.52e-009
3460	2.38	7.82	2.52e-009
3470	2.37	7.8	2.72e-009
3480	2.37	7.78	3e-009
3490	2.37	7.76	3.55e-009
3500	2.36	7.74	4.04e-009
3500	2.36	7.73	4.18e-009
3510	2.35	7.71	5.44e-009
3520	2.35	7.69	6.54e-009
3530	2.35	7.67	8.75e-009
3540	2.34	7.65	1.01e-008
3550	2.34	7.63	1.36e-008
3560	2.33	7.62	2.31e-008
3570	2.33	7.6	4.44e-008
3580	2.33	7.58	4.38e-008
3590	2.32	7.56	1.16e-007
3590	2.32	7.54	3.27e-007
3600	2.31	7.53	3.19e-007
3610	2.31	7.51	8.46e-007
3620	2.31	7.49	0.00000292
3630	2.3	7.48	0.0000134
3640	2.3	7.46	0.000207
3650	2.3	7.44	0.000275
3660	2.29	7.43	0.00368
3670	2.29	7.41	0.223
3680	2.28	7.39	0.27
3680	2.28	7.38	0.996
3690	2.28	7.36	1
3700	2.27	7.34	1
3710	2.27	7.33	1
3720	2.26	7.31	1
3730	2.26	7.3	1
3740	2.26	7.28	1
3750	2.25	7.27	1
3760	2.25	7.25	1
3770	2.25	7.23	1
3770	2.24	7.22	1
3780	2.24	7.2	1
3790	2.23	7.19	1
3800	2.23	7.18	1
3810	2.23	7.16	1
3820	2.22	7.15	1
3830	2.22	7.13	1
3840	2.22	7.12	1
3850	2.21	7.1	1
3860	2.21	7.09	1
3860	2.21	7.07	1
3870	2.2	7.06	1
3880	2.2	7.05	1
3890	2.19	7.03	1
3900	2.19	7.02	1
3910	2.19	7.01	1
3920	2.18	6.99	1
3930	2.18	6.98	1
3940	2.18	6.97	1
3950	2.17	6.95	1
3950	2.17	6.94	1
3960	2.17	6.93	1
3970	2.16	6.91	1
3980	2.16	6.9	1
3990	2.15	6.89	1
4000	2.15	6.88	1
4010	2.15	6.86	1
4020	2.14	6.85	1
4030	2.14	6.84	1
4040	2.14	6.83	1
4050	2.13	6.82	1
4050	2.13	6.8	1
4060	2.13	6.79	1
4070	2.12	6.78	1
4080	2.12	6.77	1
4090	2.12	6.76	1
4100	2.11	6.75	1
4110	2.11	6.73	1
4120	2.1	6.72	1
4130	2.1	6.71	1
4140	2.1	6.7	1
4140	2.09	6.69	1
4150	2.09	6.68	1
4160	2.09	6.67	1
4170	2.08	6.66	1
4180	2.08	6.65	1
4190	2.08	6.63	1
4200	2.07	6.62	1
4210	2.07	6.61	1
4220	2.07	6.6	1
4230	2.06	6.59	1
4230	2.06	6.58	1
4240	2.06	6.57	1
4250	2.05	6.56	1
4260	2.05	6.55	1
4270	2.05	6.54	1
4280	2.04	6.53	1
4290	2.04	6.52	1
4300	2.04	6.51	1
4310	2.03	6.5	1
4320	2.03	6.49	1
4320	2.03	6.48	1
4330	2.02	6.47	1
4340	2.02	6.46	1
4350	2.02	6.46	1
4360	2.01	6.45	1
4370	2.01	6.44	1
4380	2.01	6.43	1
4390	2	6.42	1
4400	2	6.41	1
4410	2	6.4	1
4410	1.99	6.39	1
4420	1.99	6.38	1
4430	1.99	6.37	1
4440	1.98	6.37	1
4450	1.98	6.36	1
4460	1.98	6.35	1
4470	1.97	6.34	1
4480	1.97	6.33	1
4490	1.97	6.32	1
4500	1.96	6.31	1
4500	1.96	6.31	1
4510	1.96	6.3	1
4520	1.95	6.29	1
4530	1.95	6.28	1
4540	1.95	6.27	1
4550	1.94	6.27	1
4560	1.94	6.26	1
4570	1.94	6.25	1
4580	1.93	6.24	1
4590	1.93	6.23	1
4590	1.93	6.23	1
4600	1.92	6.22	1
4610	1.92	6.21	1
4620	1.92	6.2	1
4630	1.91	6.2	1
4640	1.91	6.19	1
4650	1.91	6.18	1
4660	1.9	6.17	1
4670	1.9	6.17	1
4680	1.9	6.16	1
4680	1.9	6.15	1
4690	1.89	6.15	1
4700	1.89	6.14	1
4710	1.89	6.13	1
4720	1.88	6.12	1
4730	1.88	6.12	1
4740	1.88	6.11	1
4750	1.87	6.1	1
4760	1.87	6.1	1
4770	1.87	6.09	1
4770	1.86	6.08	1
4780	1.86	6.08	1
4790	1.86	6.07	1
4800	1.85	6.06	1
4810	1.85	6.06	1
4820	1.85	6.05	1
4830	1.85	6.05	1
4840	1.84	6.04	1
4850	1.84	6.03	1
4860	1.84	6.03	1
4860	1.83	6.02	1
4870	1.83	6.01	1
4880	1.83	6.01	1
4890	1.82	6	1
4900	1.82	6	1
4910	1.82	5.99	1
4920	1.81	5.98	1
4930	1.81	5.98	1
4940	1.81	5.97	1
4950	1.81	5.97	1
4950	1.8	5.96	1
4960	1.8	5.96	1
4970	1.8	5.95	1
4980	1.79	5.94	1
4990	1.79	5.94	1
5000	1.79	5.93	1
5010	1.78	5.93	1
5020	1.78	5.92	1
5030	1.78	5.92	1
5040	1.78	5.91	1
5050	1.77	5.91	1
5050	1.77	5.9	1
5060	1.77	5.9	1
5070	1.76	5.89	1
5080	1.76	5.88	1
5090	1.76	5.88	1
5100	1.76	5.87	1
5110	1.75	5.87	1
5120	1.75	5.86	1
5130	1.75	5.86	1
5140	1.74	5.85	1
5140	1.74	5.85	1
5150	1.74	5.84	1
5160	1.73	5.84	1
5170	1.73	5.83	1
5180	1.73	5.83	1
5190	1.73	5.83	1
5200	1.72	5.82	1
5210	1.72	5.82	1
5220	1.72	5.81	1
5230	1.71	5.81	1
5230	1.71	5.8	1
5240	1.71	5.8	1
5250	1.71	5.79	1
5260	1.7	5.79	1
5270	1.7	5.78	1
5280	1.7	5.78	1
5290	1.69	5.77	1
5300	1.69	5.77	1
5310	1.69	5.77	1
5320	1.69	5.76	1
5320	1.68	5.76	1
5330	1.68	5.75	1
5340	1.68	5.75	1
5350	1.68	5.74	1
5360	1.67	5.74	1
5370	1.67	5.74	1
5380	1.67	5.73	1
5390	1.66	5.73	1
5400	1.66	5.72	1
5410	1.66	5.72	1
5410	1.66	5.72	1
5420	1.65	5.71	1
5430	1.65	5.71	1
5440	1.65	5.7	1
5450	1.64	5.7	1
5460	1.64	5.7	1
5470	1.64	5.69	1
5480	1.64	5.69	1
5490	1.63	5.69	1
5500	1.63	5.68	1
5500	1.63	5.68	1
5510	1.63	5.67	1
5520	1.62	5.67	1
5530	1.62	5.67	1
5540	1.62	5.66	1
5550	1.61	5.66	1
5560	1.61	5.66	1
5570	1.61	5.65	1
5580	1.61	5.65	1
5590	1.6	5.65	1
5590	1.6	5.64	1
5600	1.6	5.64	1
5610	1.6	5.63	1
5620	1.59	5.63	1
5630	1.59	5.63	1
5640	1.59	5.62	1
5650	1.59	5.62	1
5660	1.58	5.62	1
5670	1.58	5.61	1
5680	1.58	5.61	1
5680	1.58	5.61	1
5690	1.57	5.6	1
5700	1.57	5.6	1
5710	1.57	5.6	1
5720	1.56	5.6	1
5730	1.56	5.59	1
5740	1.56	5.59	1
5750	1.56	5.59	1
5760	1.55	5.58	1
5770	1.55	5.58	1
5770	1.55	5.58	1
5780	1.55	5.57	1
5790	1.54	5.57	1
5800	1.54	5.57	1
5810	1.54	5.56	1
5820	1.54	5.56	1
5830	1.53	5.56	1
5840	1.53	5.56	1
5850	1.53	5.55	1
5860	1.53	5.55	1
5860	1.52	5.55	1
5870	1.52	5.54	1
5880	1.52	5.54	1
5890	1.52	5.54	1
5900	1.51	5.54	1
5910	1.51	5.53	1
5920	1.51	5.53	1
5930	1.51	5.53	1
5940	1.5	5.53	1
5950	1.5	5.52	1
5950	1.5	5.52	1
5960	1.5	5.52	1
5970	1.49	5.51	1
5980	1.49	5.51	1
5990	1.49	5.51	1
6000	1.49	5.51	1
6010	1.48	5.5	1
6020	1.48	5.5	1
6030	1.48	5.5	1
6040	1.48	5.5	1
6050	1.47	5.49	1
6050	1.47	5.49	1
6060	1.47	5.49	1
6070	1.47	5.49	1
6080	1.46	5.48	1
6090	1.46	5.48	1
6100	1.46	5.48	1
6110	1.46	5.48	1
6120	1.45	5.48	1
6130	1.45	5.47	1
6140	1.45	5.47	1
6140	1.45	5.47	1
6150	1.44	5.47	1
6160	1.44	5.46	1
6170	1.44	5.46	1
6180	1.44	5.46	1
6190	1.43	5.46	1
6200	1.43	5.45	1
6210	1.43	5.45	1
6220	1.43	5.45	1
6230	1.43	5.45	1
6230	1.42	5.45	1
6240	1.42	5.44	1
6250	1.42	5.44	1
6260	1.42	5.44	1
6270	1.41	5.44	1
6280	1.41	5.44	1
6290	1.41	5.43	1
6300	1.41	5.43	1
6310	1.4	5.43	1
6320	1.4	5.43	1
6320	1.4	5.43	1
6330	1.4	5.42	1
6340	1.39	5.42	1
6350	1.39	5.42	1
6360	1.39	5.42	1
6370	1.39	5.42	1
6380	1.39	5.41	1
6390	1.38	5.41	1
6400	1.38	5.41	1
6410	1.38	5.41	1
6410	1.38	5.41	1
6420	1.37	5.4	1
6430	1.37	5.4	1
6440	1.37	5.4	1
6450	1.37	5.4	1
6460	1.36	5.4	1
6470	1.36	5.39	1
6480	1.36	5.39	1
6490	1.36	5.39	1
6500	1.36	5.39	1
6500	1.35	5.39	1
6510	1.35	5.39	1
6520	1.35	5.38	1
6530	1.35	5.38	1
6540	1.34	5.38	1
6550	1.34	5.38	1
6560	1.34	5.38	1
6570	1.34	5.38	1
6580	1.34	5.37	1
6590	1.33	5.37	1
6590	1.33	5.37	1
6600	1.33	5.37	1
6610	1.33	5.37	1
6620	1.32	5.37	1
6630	1.32	5.36	1
6640	1.32	5.36	1
6650	1.32	5.36	1
6660	1.32	5.36	1
6670	1.31	5.36	1
6680	1.31	5.36	1
6680	1.31	5.35	1
6690	1.31	5.35	1
6700	1.3	5.35	1
6710	1.3	5.35	1
6720	1.3	5.35	1
6730	1.3	5.35	1
6740	1.3	5.34	1
6750	1.29	5.34	1
6760	1.29	5.34	1
6770	1.29	5.34	1
6770	1.29	5.34	1
6780	1.29	5.34	1
6790	1.28	5.34	1
6800	1.28	5.33	1
6810	1.28	5.33	1
6820	1.28	5.33	1
6830	1.27	5.33	1
6840	1.27	5.33	1
6850	1.27	5.33	1
6860	1.27	5.33	1
6860	1.27	5.32	1
6870	1.26	5.32	1
6880	1.26	5.32	1
6890	1.26	5.32	1
6900	1.26	5.32	1
6910	1.26	5.32	1
6920	1.25	5.32	1
6930	1.25	5.32	1
6940	1.25	5.31	1
6950	1.25	5.31	1
6950	1.25	5.31	1
6960	1.24	5.31	1
6970	1.24	5.31	1
6980	1.24	5.31	1
6990	1.24	5.31	1
7000	1.24	5.3	1
7010	1.23	5.3	1
7020	1.23	5.3	1
7030	1.23	5.3	1
7040	1.23	5.3	1
7050	1.22	5.3	1
7050	1.22	5.3	1
7060	1.22	5.3	1
7070	1.22	5.3	1
7080	1.22	5.29	1
7090	1.21	5.29	1
7100	1.21	5.29	1
7110	1.21	5.29	1
7120	1.21	5.29	1
7130	1.21	5.29	1
7140	1.2	5.29	1
7140	1.2	5.29	1
7150	1.2	5.28	1
7160	1.2	5.28	1
7170	1.2	5.28	1
7180	1.19	5.28	1
7190	1.19	5.28	1
7200	1.19	5.28	1
7210	1.19	5.28	1
7220	1.19	5.28	1
7230	1.18	5.28	1
7230	1.18	5.27	1
7240	1.18	5.27	1
7250	1.18	5.27	1
7260	1.18	5.27	1
7270	1.17	5.27	1
7280	1.17	5.27	1
7290	1.17	5.27	1
7300	1.17	5.27	1
7310	1.17	5.27	1
7320	1.17	5.27	1
7320	1.16	5.26	1
7330	1.16	5.26	1
7340	1.16	5.26	1
7350	1.16	5.26	1
7360	1.16	5.26	1
7370	1.15	5.26	1
7380	1.15	5.26	1
7390	1.15	5.26	1
7400	1.15	5.26	1
7410	1.15	5.26	1
7410	1.14	5.25	1
7420	1.14	5.25	1
7430	1.14	5.25	1
7440	1.14	5.25	1
7450	1.14	5.25	1
7460	1.13	5.25	1
7470	1.13	5.25	1
7480	1.13	5.25	1
7490	1.13	5.25	1
7500	1.13	5.25	1
7500	1.13	5.24	1
7510	1.12	5.24	1
7520	1.12	5.24	1
7530	1.12	5.24	1
7540	1.12	5.24	1
7550	1.12	5.24	1
7560	1.11	5.24	1
7570	1.11	5.24	1
7580	1.11	5.24	1
7590	1.11	5.24	1
7590	1.11	5.24	1
7600	1.1	5.23	1
7610	1.1	5.23	1
7620	1.1	5.23	1
7630	1.1	5.23	1
7640	1.1	5.23	1
7650	1.1	5.23	1
7660	1.09	5.23	1
7670	1.09	5.23	1
7680	1.09	5.23	1
7680	1.09	5.23	1
7690	1.09	5.23	1
7700	1.08	5.23	1
7710	1.08	5.22	1
7720	1.08	5.22	1
7730	1.08	5.22	1
7740	1.08	5.22	1
7750	1.08	5.22	1
7760	1.07	5.22	1
7770	1.07	5.22	1
7770	1.07	5.22	1
7780	1.07	5.22	1
7790	1.07	5.22	1
7800	1.06	5.22	1
7810	1.06	5.22	1
7820	1.06	5.22	1
7830	1.06	5.21	1
7840	1.06	5.21	1
7850	1.06	5.21	1
7860	1.05	5.21	1
7860	1.05	5.21	1
7870	1.05	5.21	1
7880	1.05	5.21	1
7890	1.05	5.21	1
7900	1.05	5.21	1
7910	1.04	5.21	1
7920	1.04	5.21	1
7930	1.04	5.21	1
7940	1.04	5.21	1
7950	1.04	5.21	1
7950	1.04	5.2	1
7960	1.03	5.2	1
7970	1.03	5.2	1
7980	1.03	5.2	1
7990	1.03	5.2	1
8000	1.03	5.2	1
8010	1.02	5.2	1
8020	1.02	5.2	1
8030	1.02	5.2	1
8040	1.02	5.2	1
8050	1.02	5.2	1
8050	1.02	5.2	1
8060	1.01	5.2	1
8070	1.01	5.2	1
8080	1.01	5.2	1
8090	1.01	5.19	1
8100	1.01	5.19	1
8110	1.01	5.19	1
8120	1	5.19	1
8130	1	5.19	1
8140	1	5.19	1
8140	1	5.19	1
8150	0.998	5.19	1
8160	0.996	5.19	1
8170	0.995	5.19	1
8180	0.993	5.19	1
8190	0.991	5.19	1
8200	0.99	5.19	1
8210	0.988	5.19	1
8220	0.986	5.19	1
8230	0.985	5.19	1
8230	0.983	5.18	1
8240	0.981	5.18	1
8250	0.98	5.18	1
8260	0.978	5.18	1
8270	0.976	5.18	1
8280	0.975	5.18	1
8290	0.973	5.18	1
8300	0.972	5.18	1
8310	0.97	5.18	1
8320	0.968	5.18	1
8320	0.967	5.18	1
8330	0.965	5.18	1
8340	0.964	5.18	1
8350	0.962	5.18	1
8360	0.96	5.18	1
8370	0.959	5.18	1
8380	0.957	5.18	1
8390	0.956	5.17	1
8400	0.954	5.17	1
8410	0.952	5.17	1
8410	0.951	5.17	1
8420	0.949	5.17	1
8430	0.948	5.17	1
8440	0.946	5.17	1
